,energy,data,data_err
0,9.7266,6.1678,0.019962
1,9.1523,6.142,0.02033
2,8.6273,6.1577,0.021147
3,8.1462,6.1847,0.021742
4,7.7043,6.1524,0.023449
5,7.2674,6.0872,0.027811
6,6.6114,6.0876,0.064652
7,5.9857,6.1454,0.016953
8,5.4448,6.1615,0.015044
9,4.9741,6.1706,0.015031
10,4.5619,6.1678,0.015217
11,4.1989,6.1569,0.01535
12,3.8776,6.1584,0.01549
13,3.5918,6.1744,0.015712
14,3.3364,6.1403,0.015752
15,3.1074,6.161,0.015998
16,2.9011,6.159,0.016092
17,2.7148,6.1724,0.01626
18,2.5458,6.1487,0.016356
19,2.3921,6.1657,0.016533
20,2.252,6.1435,0.016614
21,2.1238,6.1494,0.0168
22,2.0062,6.1214,0.016892
23,1.8982,6.1525,0.017056
24,1.7986,6.1703,0.017238
25,1.7067,6.1422,0.017294
26,1.6216,6.1564,0.017453
27,1.5428,6.162,0.017607
28,1.4696,6.1467,0.017674
29,1.4014,6.1509,0.017803
30,1.3379,6.1393,0.017922
31,1.2786,6.1345,0.018038
32,1.2232,6.1377,0.018161
33,1.1713,6.1687,0.018389
34,1.1226,6.1513,0.018492
35,1.0769,6.1442,0.01857
36,1.034,6.1519,0.018697
37,0.99353,6.1578,0.018791
38,0.95541,6.1724,0.018891
39,0.91945,6.1687,0.018975
40,0.88548,6.1604,0.019036
41,0.85336,6.16,0.019124
42,0.82296,6.1449,0.019247
43,0.79415,6.1307,0.019274
44,0.76683,6.1437,0.019426
45,0.74089,6.1432,0.019526
46,0.71625,6.1164,0.019543
47,0.69282,6.1678,0.019807
48,0.67052,6.1442,0.019838
49,0.64928,6.15,0.019926
50,0.62903,6.1576,0.020073
51,0.60971,6.1501,0.02011
52,0.59127,6.1456,0.020143
53,0.57366,6.1535,0.020276
54,0.55682,6.127,0.020233
55,0.54071,6.14,0.020412
56,0.52529,6.1463,0.020445
57,0.51052,6.1471,0.020528
58,0.49637,6.1774,0.020652
59,0.48279,6.1017,0.020535
60,0.46977,6.14,0.020675
61,0.45726,6.1972,0.020924
62,0.44525,6.1345,0.020784
63,0.43371,6.1553,0.020934
64,0.42261,6.1566,0.021078
65,0.41192,6.1331,0.021043
66,0.40164,6.1081,0.02109
67,0.39174,6.1396,0.0212
68,0.3822,6.1258,0.021264
69,0.37301,6.1243,0.021432
70,0.36414,6.1688,0.021643
71,0.35559,6.1606,0.021716
72,0.34733,6.142,0.021798
73,0.33936,6.1155,0.021742
74,0.33166,6.111,0.02185
75,0.32422,6.1709,0.022164
76,0.31702,6.1613,0.022256
77,0.31006,6.1514,0.022327
78,0.30333,6.1449,0.02235
79,0.29682,6.1749,0.022584
80,0.29051,6.1541,0.022622
81,0.28441,6.1256,0.022575
82,0.27849,6.1188,0.022656
83,0.27275,6.1061,0.022632
84,0.2672,6.1207,0.022747
85,0.26181,6.1303,0.022836
86,0.25658,6.1496,0.022969
87,0.2515,6.1022,0.022872
88,0.24658,6.1339,0.023051
89,0.2418,6.1475,0.02316
90,0.23715,6.1657,0.02323
91,0.23264,6.1229,0.023088
92,0.22826,6.1428,0.023229
93,0.22399,6.152,0.023265
94,0.21985,6.1459,0.02323
95,0.21582,6.1816,0.023392
96,0.2119,6.1217,0.023185
97,0.20809,6.1498,0.023282
98,0.20438,6.1255,0.02324
99,0.20077,6.1279,0.023313
100,0.19725,6.1398,0.023305
101,0.19382,6.1199,0.023146
102,0.19048,6.1524,0.023304
103,0.18723,6.0991,0.023098
104,0.18406,6.1366,0.023182
105,0.18073,6.1524,0.019633
106,0.17532,6.1252,0.016344
107,0.16964,6.1174,0.016238
108,0.16424,6.0976,0.016085
109,0.15909,6.072,0.015952
110,0.15417,6.1131,0.015973
111,0.14949,6.1411,0.015923
112,0.14501,6.0781,0.015646
113,0.14073,6.0779,0.015556
114,0.13743,6.0943,0.02001
115,0.13504,6.0953,0.019876
116,0.13271,6.0225,0.019566
117,0.13044,6.0817,0.019622
118,0.12823,6.1047,0.019585
119,0.12608,6.1116,0.01958
120,0.12397,6.1344,0.019529
121,0.12192,6.1196,0.019442
122,0.11992,6.1381,0.019386
123,0.11797,6.1488,0.019357
124,0.11607,6.1304,0.019244
125,0.11421,6.0835,0.019044
126,0.1124,6.0546,0.018779
127,0.11063,6.0723,0.018782
128,0.1089,6.0772,0.018733
129,0.10721,6.0895,0.018701
130,0.10556,6.0644,0.018571
131,0.10395,6.0734,0.018499
132,0.10309,6.0209,0.063772
133,0.10296,5.9236,0.062017
134,0.10282,5.9794,0.062986
135,0.10269,5.9384,0.062363
136,0.10256,6.0957,0.063671
137,0.10243,5.9358,0.062931
138,0.1023,6.0128,0.063299
139,0.10217,6.0008,0.06241
140,0.10205,6.0365,0.063334
141,0.10192,6.1683,0.064784
142,0.10179,6.1328,0.064445
143,0.10166,6.0202,0.063244
144,0.10153,6.0451,0.063634
145,0.1014,6.129,0.064336
146,0.10127,6.209,0.065123
147,0.10115,6.1687,0.064569
148,0.10102,6.078,0.064151
149,0.10089,6.1465,0.064742
150,0.10077,6.1684,0.064422
151,0.10064,6.0915,0.063613
152,0.10051,6.0227,0.062937
153,0.10039,5.9525,0.062071
154,0.10026,6.1666,0.064375
155,0.10013,6.0544,0.062631
156,0.10001,5.9796,0.062404
157,0.099884,6.0035,0.062466
158,0.099759,6.0276,0.062811
159,0.099634,6.0391,0.062964
160,0.09951,6.0102,0.062592
161,0.099386,6.1534,0.064003
162,0.099262,6.0814,0.063314
163,0.099138,6.0873,0.063323
164,0.099014,6.0148,0.062145
165,0.098891,6.022,0.062401
166,0.098768,5.9869,0.062337
167,0.098645,6.1303,0.063539
168,0.098522,6.0078,0.062066
169,0.0984,6.1028,0.063352
170,0.098277,5.9866,0.062162
171,0.098155,5.9526,0.061712
172,0.098034,6.094,0.063177
173,0.097912,5.9652,0.061684
174,0.097791,6.0347,0.06249
175,0.09767,6.2025,0.064352
176,0.097549,5.9668,0.061498
177,0.097428,5.9809,0.061995
178,0.097308,5.8848,0.061145
179,0.097188,5.9541,0.061882
180,0.097068,5.9656,0.061669
181,0.096948,5.9917,0.062142
182,0.096829,5.9545,0.061982
183,0.096709,5.9914,0.062027
184,0.09659,6.0674,0.062543
185,0.096471,6.0905,0.062937
186,0.096353,5.9386,0.06153
187,0.096234,6.0213,0.06224
188,0.096116,5.9082,0.061354
189,0.095998,6.0978,0.063342
190,0.09588,5.9773,0.061812
191,0.095763,6.1772,0.063692
192,0.095645,6.1427,0.063494
193,0.095528,5.8972,0.061131
194,0.095411,5.9478,0.061846
195,0.095295,6.0432,0.062304
196,0.095178,5.9969,0.061691
197,0.095062,6.0,0.061959
198,0.094946,6.0947,0.062887
199,0.09483,6.0031,0.06167
200,0.094714,6.1619,0.06374
201,0.094599,6.0451,0.062258
202,0.094484,6.0499,0.062488
203,0.094369,6.0758,0.062638
204,0.094254,6.1047,0.062666
205,0.09414,6.1325,0.063119
206,0.094025,6.1141,0.06276
207,0.093911,5.959,0.061283
208,0.093797,6.0566,0.06207
209,0.093683,6.0845,0.062568
210,0.09357,6.0367,0.062208
211,0.093456,6.1447,0.063091
212,0.093343,6.0568,0.062172
213,0.09323,6.0356,0.062224
214,0.093118,5.9175,0.061232
215,0.093005,6.07,0.062377
216,0.092893,6.012,0.061845
217,0.092781,6.0986,0.062272
218,0.092669,5.8695,0.060445
219,0.092279,6.0112,0.0252
220,0.091616,6.0653,0.025339
221,0.09096,6.0893,0.025473
222,0.090312,6.1347,0.025679
223,0.08967,6.0812,0.025416
224,0.089035,6.1043,0.025479
225,0.088406,6.0686,0.025334
226,0.087785,6.1131,0.025465
227,0.087169,6.1008,0.025443
228,0.086561,6.1404,0.025604
229,0.085958,6.1787,0.025653
230,0.085362,6.1593,0.02564
231,0.084772,6.2087,0.025824
232,0.084188,6.1032,0.025345
233,0.08361,6.2073,0.025774
234,0.083039,6.1181,0.025462
235,0.082472,6.1688,0.025651
236,0.081912,6.0498,0.025175
237,0.081358,6.0679,0.025216
238,0.080809,6.0314,0.025096
239,0.080265,6.09,0.025334
240,0.079727,6.1347,0.025459
241,0.079195,6.0749,0.025237
242,0.078667,6.1844,0.025743
243,0.078145,6.1553,0.025658
244,0.077628,6.1335,0.025575
245,0.077117,6.1391,0.025678
246,0.07661,6.1366,0.025632
247,0.076108,6.0914,0.025454
248,0.075611,6.1152,0.025485
249,0.075119,6.0921,0.025391
250,0.074632,6.0466,0.025183
251,0.07435,6.07,0.06171
252,0.07427,6.2156,0.062908
253,0.07419,6.0495,0.061704
254,0.07411,6.0542,0.061741
255,0.07403,6.0444,0.061795
256,0.07395,6.1181,0.062324
257,0.07387,6.0587,0.061937
258,0.073791,6.0702,0.061838
259,0.073711,6.1015,0.062298
260,0.073632,6.0681,0.06197
261,0.073553,6.0816,0.061711
262,0.073474,6.1163,0.062253
263,0.073395,6.1149,0.062372
264,0.073317,6.1716,0.062909
265,0.073238,6.141,0.062731
266,0.073159,6.0769,0.062135
267,0.073081,6.0932,0.062015
268,0.073003,6.0032,0.061317
269,0.072925,6.0275,0.061756
270,0.072847,5.9699,0.061132
271,0.072769,5.8574,0.059855
272,0.072691,6.0189,0.06105
273,0.072614,5.9192,0.060455
274,0.072536,5.9983,0.061337
275,0.072459,5.9996,0.061279
276,0.072382,6.0068,0.060898
277,0.072304,6.0462,0.061509
278,0.072227,5.8149,0.059723
279,0.072151,5.9306,0.060349
280,0.072074,6.0523,0.061488
281,0.071997,5.9587,0.060478
282,0.071921,6.018,0.061203
283,0.071844,5.9369,0.060502
284,0.071768,5.9431,0.060098
285,0.071692,5.9085,0.059927
286,0.071616,5.9313,0.060402
287,0.07154,5.9166,0.060471
288,0.071464,5.8912,0.060182
289,0.071389,5.8603,0.059736
290,0.071313,5.8221,0.059284
291,0.071238,6.0327,0.060775
292,0.071162,5.8938,0.060284
293,0.071087,5.9783,0.060793
294,0.071012,6.0355,0.061226
295,0.070937,5.8985,0.060226
296,0.070862,6.0095,0.060882
297,0.070788,5.9243,0.060145
298,0.070713,6.003,0.060834
299,0.070639,5.8652,0.059513
300,0.070564,5.9756,0.060607
301,0.07049,5.9371,0.060262
302,0.070416,5.9785,0.060483
303,0.070342,5.9825,0.060653
304,0.070268,5.9649,0.060836
305,0.070194,5.8007,0.058813
306,0.070121,5.9174,0.059982
307,0.070047,5.9961,0.060571
308,0.069974,5.9151,0.060181
309,0.0699,5.9028,0.060025
310,0.069827,6.0998,0.061806
311,0.069754,6.036,0.061018
312,0.069681,5.9115,0.059474
313,0.069608,5.9961,0.060679
314,0.069536,5.9378,0.060064
315,0.069463,5.9434,0.059953
316,0.069391,5.9084,0.059669
317,0.069318,5.8159,0.058857
318,0.069246,5.9957,0.060251
319,0.069174,5.9859,0.060301
320,0.069102,5.8895,0.059486
321,0.06903,5.764,0.058733
322,0.068958,5.7479,0.058247
323,0.068886,5.8236,0.058885
324,0.068815,5.9044,0.059674
325,0.068743,5.8611,0.058905
326,0.068672,5.8268,0.058468
327,0.068601,5.7521,0.058397
328,0.068529,5.7677,0.058571
329,0.068458,5.7908,0.058424
330,0.068387,5.7117,0.057704
331,0.068317,5.8218,0.058631
332,0.068246,5.7552,0.058405
333,0.068175,5.8313,0.05895
334,0.068105,5.7338,0.058287
335,0.067859,5.8052,0.023994
336,0.067441,5.7779,0.023945
337,0.067026,5.7829,0.023972
338,0.066616,5.8256,0.024184
339,0.066209,5.8736,0.024377
340,0.065805,5.8641,0.024403
341,0.065406,5.9015,0.024619
342,0.06501,5.9003,0.024612
343,0.064618,5.8731,0.024613
344,0.064229,5.939,0.02491
345,0.063843,5.9547,0.025013
346,0.063462,5.9505,0.025073
347,0.063083,5.9362,0.025049
348,0.062708,6.0142,0.025343
349,0.062336,5.9967,0.025285
350,0.061968,5.994,0.025267
351,0.061603,5.9098,0.024958
352,0.061241,5.9274,0.025011
353,0.060882,5.8976,0.025009
354,0.060526,5.8799,0.024909
355,0.060174,5.8444,0.024735
356,0.059824,5.8542,0.024836
357,0.059478,5.8836,0.024991
358,0.059135,5.8595,0.025035
359,0.058794,5.9236,0.025308
360,0.058457,5.8852,0.02523
361,0.058122,5.9182,0.025422
362,0.05779,5.9582,0.02566
363,0.057461,5.9353,0.025656
364,0.057135,6.0062,0.026005
365,0.056812,5.9355,0.02585
366,0.056491,5.9911,0.026138
367,0.056173,6.0238,0.02622
368,0.055858,5.9934,0.026162
369,0.055545,6.0848,0.026483
370,0.055235,6.1312,0.026771
371,0.054928,6.0546,0.026593
372,0.054623,6.1121,0.026854
373,0.054321,6.1202,0.026954
374,0.054021,6.1796,0.027308
375,0.053724,6.1631,0.027237
376,0.053429,6.1865,0.027409
377,0.053137,6.1817,0.027397
378,0.052847,6.1028,0.027101
379,0.052559,6.1507,0.027288
380,0.052273,6.1009,0.027174
381,0.05199,6.1292,0.027368
382,0.05171,6.1575,0.027586
383,0.051431,6.1874,0.027762
384,0.051155,6.1447,0.027796
385,0.050881,6.0997,0.027635
386,0.050609,6.0436,0.027332
387,0.05034,6.0428,0.02738
388,0.050072,5.9865,0.027291
389,0.049807,5.9694,0.027205
390,0.049543,5.9672,0.02729
391,0.049282,6.0309,0.027719
392,0.049023,6.0155,0.027693
393,0.048766,6.0514,0.027873
394,0.048511,6.0388,0.027827
395,0.048258,6.1036,0.02816
396,0.048007,6.1569,0.028403
397,0.047758,6.0871,0.028263
398,0.047511,6.168,0.028668
399,0.047265,6.2528,0.029014
400,0.047022,6.1888,0.028873
401,0.04678,6.2401,0.02914
402,0.046541,6.2521,0.02924
403,0.046303,6.1689,0.028979
404,0.046067,6.1653,0.029022
405,0.045833,6.2259,0.029418
406,0.0456,6.1614,0.029296
407,0.04537,6.1773,0.029506
408,0.045141,6.1655,0.029581
409,0.044913,6.0846,0.029195
410,0.044688,6.0343,0.029022
411,0.044464,6.0738,0.029221
412,0.044242,5.9689,0.028967
413,0.044022,6.0229,0.029332
414,0.043803,6.0213,0.029383
415,0.043586,6.0734,0.029614
416,0.04337,6.0735,0.029633
417,0.043156,6.094,0.029726
418,0.042944,6.113,0.029911
419,0.042733,6.1051,0.029915
420,0.042524,6.11,0.030042
421,0.042316,6.078,0.029929
422,0.04211,6.0981,0.030106
423,0.041905,6.1435,0.030471
424,0.041769,6.0829,0.052707
425,0.041702,6.1583,0.053097
426,0.041634,6.1159,0.052936
427,0.041567,6.1607,0.053297
428,0.0415,6.1794,0.053502
429,0.041433,6.1881,0.053504
430,0.041366,6.1345,0.053534
431,0.0413,6.1052,0.052901
432,0.041233,6.197,0.053882
433,0.041167,6.117,0.053439
434,0.041101,5.9943,0.052169
435,0.041035,5.9533,0.051884
436,0.040969,5.954,0.051909
437,0.040903,5.9233,0.05182
438,0.040838,5.8844,0.051558
439,0.040773,5.9201,0.051773
440,0.040707,5.8761,0.05174
441,0.040642,5.7744,0.050692
442,0.040578,5.8183,0.051278
443,0.040513,5.8301,0.05143
444,0.040448,5.9449,0.052643
445,0.040384,5.8924,0.051994
446,0.04032,5.8307,0.051652
447,0.040256,5.8796,0.052032
448,0.040192,5.9085,0.052398
449,0.040128,5.9228,0.052419
450,0.040064,5.7535,0.051294
451,0.039969,5.8876,0.036953
452,0.039843,5.9206,0.037241
453,0.039717,5.9209,0.037413
454,0.039592,5.9282,0.037475
455,0.039467,5.9003,0.037396
456,0.039343,5.9772,0.037874
457,0.03922,5.9523,0.037809
458,0.039097,5.9707,0.038061
459,0.038975,6.0399,0.038461
460,0.038853,5.9278,0.037935
461,0.038732,6.0227,0.038629
462,0.038656,6.0508,0.077289
463,0.038626,6.0104,0.076955
464,0.038596,6.0607,0.077899
465,0.038566,6.1265,0.078921
466,0.038536,6.064,0.077837
467,0.038506,6.0267,0.077434
468,0.038476,6.018,0.077362
469,0.038446,6.1208,0.078899
470,0.038417,6.017,0.077959
471,0.038387,6.008,0.077658
472,0.038357,6.1002,0.078808
473,0.038327,5.9932,0.078137
474,0.038297,6.1436,0.079289
475,0.038268,6.088,0.078559
476,0.038238,6.055,0.078399
477,0.038209,6.0659,0.078707
478,0.038179,5.9662,0.077802
479,0.038149,6.1089,0.078856
480,0.03812,5.8366,0.076439
481,0.03809,5.9517,0.077399
482,0.038061,5.9925,0.077765
483,0.038032,5.9061,0.076609
484,0.038002,5.8411,0.075251
485,0.037973,5.8391,0.075434
486,0.037944,5.7429,0.074585
487,0.037914,5.6893,0.074171
488,0.037885,5.8193,0.075002
489,0.037856,5.6531,0.074103
490,0.037827,5.6756,0.074191
491,0.037797,5.7191,0.074521
492,0.037768,5.7733,0.075094
493,0.037739,5.6517,0.07435
494,0.03771,5.6511,0.073506
495,0.037681,5.7874,0.07515
496,0.037652,5.6976,0.074777
497,0.037623,5.6322,0.073965
498,0.037594,5.7164,0.074599
499,0.037566,5.7605,0.074684
500,0.037537,5.6554,0.07381
501,0.037508,5.7328,0.07475
502,0.037479,5.7877,0.075743
503,0.03745,5.6116,0.073258
504,0.037422,5.5989,0.073584
505,0.037393,5.6545,0.074493
506,0.037364,5.7114,0.075236
507,0.037336,5.671,0.075043
508,0.037307,5.6144,0.073656
509,0.037279,5.5735,0.07367
510,0.03725,5.6608,0.074632
511,0.037222,5.6651,0.074379
512,0.037193,5.7591,0.076021
513,0.037165,5.6843,0.074697
514,0.037136,5.7607,0.076417
515,0.037108,5.7706,0.076057
516,0.03708,5.6772,0.075211
517,0.037052,5.6972,0.07513
518,0.036995,5.638,0.043056
519,0.036911,5.6885,0.043896
520,0.036826,5.7081,0.043844
521,0.036743,5.7334,0.044267
522,0.036659,5.7879,0.044631
523,0.036576,5.7952,0.044916
524,0.036493,5.7238,0.044391
525,0.03641,5.7134,0.044332
526,0.036328,5.6725,0.044135
527,0.036245,5.7364,0.044537
528,0.036163,5.8069,0.045092
529,0.036082,5.6594,0.044406
530,0.036,5.7327,0.044759
531,0.035919,5.6997,0.044671
532,0.035839,5.7748,0.045253
533,0.035758,5.8164,0.045645
534,0.035678,5.7328,0.045402
535,0.035598,5.793,0.04585
536,0.035518,5.8258,0.045966
537,0.035465,5.7243,0.079481
538,0.035439,5.7282,0.079265
539,0.035412,5.7886,0.079927
540,0.035386,5.719,0.078923
541,0.035359,5.7959,0.079581
542,0.035333,5.9086,0.081451
543,0.035307,5.8753,0.081307
544,0.035281,5.8377,0.080472
545,0.035254,5.7565,0.079916
546,0.035228,5.86,0.080785
547,0.035202,5.8176,0.080253
548,0.035176,5.7819,0.080184
549,0.03515,5.571,0.077501
550,0.035123,5.6468,0.078167
551,0.035097,5.7701,0.079439
552,0.035071,5.6213,0.078294
553,0.035045,5.5712,0.078061
554,0.035019,5.6244,0.077919
555,0.034993,5.6419,0.078549
556,0.034968,5.6609,0.079401
557,0.034942,5.6012,0.07824
558,0.034916,5.6175,0.077874
559,0.03489,5.6212,0.078123
560,0.034864,5.6596,0.079373
561,0.034838,5.6078,0.07823
562,0.034813,5.7656,0.080552
563,0.034787,5.6309,0.078422
564,0.034761,5.5888,0.078232
565,0.034735,5.4232,0.07663
566,0.03471,5.6153,0.078418
567,0.034684,5.4701,0.076552
568,0.034659,5.5255,0.078079
569,0.034633,5.7038,0.079633
570,0.034608,5.5589,0.07766
571,0.034582,5.5392,0.07758
572,0.034557,5.5217,0.078427
573,0.034531,5.4525,0.076768
574,0.034506,5.6065,0.078751
575,0.034341,5.5914,0.022792
576,0.034041,5.6397,0.023204
577,0.033744,5.6933,0.023606
578,0.033451,5.7172,0.023903
579,0.033162,5.7147,0.024097
580,0.032877,5.7749,0.024211
581,0.032595,5.802,0.02436
582,0.032317,5.8837,0.024896
583,0.032042,5.8783,0.025093
584,0.031771,5.9328,0.02555
585,0.031504,6.0135,0.026054
586,0.03124,6.0176,0.026285
587,0.030979,6.0216,0.026541
588,0.030721,6.0426,0.026938
589,0.030466,6.0211,0.026965
590,0.030215,5.9543,0.026728
591,0.029967,5.9864,0.026979
592,0.029722,6.0813,0.027685
593,0.02948,6.0884,0.027934
594,0.02924,6.1297,0.028358
595,0.029004,6.1952,0.028853
596,0.02877,6.261,0.029403
597,0.02854,6.2397,0.029241
598,0.028312,6.2908,0.029686
599,0.028087,6.3237,0.03009
600,0.027864,6.3138,0.030229
601,0.027644,6.426,0.031081
602,0.027427,6.469,0.031613
603,0.027212,6.4199,0.031646
604,0.027,6.4056,0.031798
605,0.02679,6.4193,0.032155
606,0.026583,6.4175,0.032422
607,0.026378,6.4881,0.033052
608,0.026175,6.5502,0.033661
609,0.025975,6.5578,0.034078
610,0.025777,6.6266,0.03487
611,0.025582,6.6256,0.035135
612,0.025388,6.4845,0.034774
613,0.025197,6.4902,0.035104
614,0.025008,6.5397,0.035678
615,0.024821,6.5947,0.036268
616,0.024636,6.6316,0.036948
617,0.024453,6.6168,0.037173
618,0.024272,6.7079,0.038106
619,0.024093,6.734,0.038712
620,0.023916,6.7691,0.039132
621,0.023741,6.788,0.039525
622,0.023568,6.8646,0.040293
623,0.023397,6.8579,0.040609
624,0.023228,6.9472,0.04113
625,0.023061,6.9387,0.040754
626,0.022895,6.9841,0.040806
627,0.022731,7.0633,0.041608
628,0.022569,7.0649,0.041761
629,0.022468,6.983,0.082413
630,0.022428,6.8379,0.080876
631,0.022389,6.8875,0.081086
632,0.022349,6.7088,0.079206
633,0.022309,6.5671,0.078134
634,0.02227,6.5587,0.07705
635,0.02223,6.5677,0.077581
636,0.022191,6.6256,0.078452
637,0.022152,6.444,0.076133
638,0.022112,6.4832,0.076801
639,0.022073,6.5375,0.078345
640,0.022034,6.2649,0.07404
641,0.021996,6.0684,0.071762
642,0.021957,5.9349,0.069993
643,0.021918,5.8149,0.068432
644,0.02188,5.7628,0.068404
645,0.021841,5.6491,0.066961
646,0.021803,5.6422,0.066544
647,0.021765,5.4762,0.065522
648,0.021727,5.643,0.066987
649,0.021689,5.7984,0.069217
650,0.021651,5.6236,0.067158
651,0.021613,5.5998,0.067172
652,0.021575,5.527,0.066509
653,0.021537,5.6539,0.067572
654,0.021444,5.7257,0.034494
655,0.021295,5.6314,0.034344
656,0.021148,5.6846,0.034811
657,0.021003,5.7679,0.035621
658,0.020859,5.757,0.035806
659,0.020716,5.6988,0.035588
660,0.020575,5.755,0.036145
661,0.020436,5.7235,0.03637
662,0.020297,5.7411,0.036798
663,0.020161,5.7689,0.037349
664,0.020025,5.8606,0.038246
665,0.019947,5.9948,0.094823
666,0.019924,5.8354,0.093439
667,0.019902,5.8621,0.094541
668,0.01988,5.9332,0.095819
669,0.019858,6.0987,0.098069
670,0.019835,5.7557,0.093046
671,0.019813,5.9977,0.09695
672,0.019791,5.9161,0.096169
673,0.019769,5.8449,0.095136
674,0.019747,5.8394,0.095146
675,0.019725,5.8034,0.093496
676,0.019703,5.9403,0.095595
677,0.019681,6.021,0.097522
678,0.01966,5.9338,0.096678
679,0.019638,6.0723,0.098926
680,0.019616,6.1475,0.099569
681,0.019594,5.795,0.094407
682,0.019572,5.7614,0.09457
683,0.019551,5.5878,0.091708
684,0.019529,5.4991,0.090004
685,0.019507,5.3066,0.086826
686,0.019486,4.9621,0.082729
687,0.019464,4.9378,0.082196
688,0.019443,4.8622,0.081038
689,0.019421,4.859,0.081758
690,0.0194,4.8608,0.081504
691,0.019379,4.724,0.079123
692,0.019357,4.9056,0.08236
693,0.019336,4.8555,0.080777
694,0.019315,4.6769,0.079311
695,0.019293,4.7516,0.079985
696,0.019272,4.6667,0.079163
697,0.019251,4.8378,0.080967
698,0.01923,4.6869,0.079718
699,0.019156,4.7224,0.03272
700,0.019031,4.7522,0.033205
701,0.018906,4.6965,0.033234
702,0.018783,4.7253,0.033685
703,0.018661,4.7783,0.034198
704,0.018541,4.7865,0.034575
705,0.018421,4.822,0.03494
706,0.018303,4.8422,0.035422
